time/h,Ewe/V
0.000277056,3.2013
0.000555556,3.20234
0.000555667,3.21292
0.000559333,3.22295
0.000570389,3.23297
0.000584833,3.24299
0.000602111,3.25301
0.000621667,3.26309
0.000643167,3.27314
0.000666278,3.2832
0.000691111,3.29327
0.000717611,3.30332
0.000745056,3.31335
0.000773833,3.32338
0.000803556,3.33339
0.0008345,3.34346
0.000866444,3.35346
0.000899778,3.36349
0.000933667,3.37351
0.0009685,3.38354
0.001,3.39357
0.00104,3.40357
0.00108,3.41366
0.00112,3.42367
0.00116,3.43369
0.0012,3.44372
0.00124,3.45376
0.00128,3.46378
0.00132,3.47383
0.00137,3.48386
0.00141,3.49387
0.00146,3.5039
0.00151,3.51399
0.00156,3.52404
0.00161,3.53406
0.00166,3.54412
0.00171,3.55413
0.00177,3.56414
0.00183,3.57421
0.00189,3.58427
0.00195,3.59427
0.00202,3.60432
0.00209,3.61434
0.00216,3.62439
0.00224,3.63439
0.00232,3.64446
0.00241,3.65453
0.00252,3.66455
0.00264,3.67456
0.00279,3.68457
0.00302,3.69458
0.00527,3.68456
0.00746,3.67455
0.0158,3.66485
0.02413,3.66179
0.03246,3.66045
0.0408,3.66008
0.04913,3.65994
0.05746,3.66059
0.0658,3.66143
0.07413,3.66247
0.08246,3.66365
0.0908,3.66501
0.09913,3.66648
0.10746,3.66807
0.1158,3.66971
0.12413,3.67134
0.13246,3.673
0.1408,3.67476
0.14913,3.67643
0.15746,3.67826
0.1658,3.67997
0.17413,3.68184
0.18246,3.68359
0.1908,3.68534
0.19913,3.6872
0.20746,3.68908
0.2158,3.6909
0.22413,3.69246
0.23246,3.69439
0.2408,3.6963
0.24913,3.69806
0.25746,3.69978
0.2658,3.70157
0.27413,3.70327
0.28246,3.7051
0.2908,3.70665
0.29913,3.70835
0.30746,3.70992
0.3158,3.7116
0.32413,3.71318
0.33246,3.71496
0.3408,3.71644
0.34913,3.71801
0.35746,3.71958
0.3658,3.72105
0.37413,3.72259
0.38246,3.72399
0.3908,3.72533
0.39913,3.72701
0.40746,3.72824
0.4158,3.72969
0.42413,3.73107
0.43246,3.73238
0.4408,3.73376
0.44913,3.73503
0.45746,3.73622
0.4658,3.73746
0.47413,3.73886
0.48246,3.7401
0.4908,3.74119
0.49913,3.74254
0.50746,3.7437
0.5158,3.7448
0.52413,3.74595
0.53246,3.74701
0.5408,3.74807
0.54913,3.7491
0.55746,3.75038
0.5658,3.75146
0.57413,3.75245
0.58246,3.75355
0.5908,3.75455
0.59913,3.75563
0.60746,3.75664
0.6158,3.75774
0.62413,3.75865
0.63246,3.75975
0.6408,3.76051
0.64913,3.76149
0.65746,3.7624
0.6658,3.76351
0.67413,3.76435
0.68246,3.76538
0.6908,3.76619
0.69913,3.76703
0.70746,3.76791
0.7158,3.76873
0.72413,3.76956
0.73246,3.77063
0.7408,3.77141
0.74913,3.77213
0.75746,3.77307
0.7658,3.77404
0.77413,3.77484
0.78246,3.77559
0.7908,3.77647
0.79913,3.77734
0.80746,3.77805
0.8158,3.77883
0.82413,3.77972
0.83246,3.78038
0.8408,3.78125
0.84913,3.78199
0.85746,3.78279
0.8658,3.78368
0.87413,3.78427
0.88246,3.78507
0.8908,3.78577
0.89913,3.78656
0.90746,3.78737
0.9158,3.78803
0.92413,3.7889
0.93246,3.78976
0.9408,3.79034
0.94913,3.79117
0.95746,3.79188
0.9658,3.7926
0.97413,3.79328
0.98246,3.79409
0.9908,3.79462
0.99913,3.79546
1.00746,3.79615
1.0158,3.79672
1.02413,3.7976
1.03246,3.79826
1.0408,3.79899
1.04913,3.79954
1.05746,3.80033
1.0658,3.801
1.07413,3.80184
1.08246,3.80235
1.0908,3.80301
1.09913,3.80376
1.10746,3.80427
1.1158,3.80513
1.12413,3.80584
1.13246,3.80651
1.1408,3.80713
1.14913,3.80774
1.15746,3.80843
1.1658,3.8093
1.17413,3.80986
1.18246,3.8106
1.1908,3.81122
1.19913,3.81182
1.20746,3.81234
1.2158,3.81311
1.22413,3.81376
1.23246,3.81441
1.2408,3.81503
1.24913,3.81571
1.25746,3.81637
1.2658,3.8169
1.27413,3.81754
1.28246,3.81827
1.2908,3.81899
1.29913,3.81959
1.30746,3.82017
1.3158,3.82092
1.32413,3.82153
1.33246,3.82209
1.3408,3.82281
1.34913,3.82351
1.35746,3.82413
1.3658,3.82463
1.37413,3.82546
1.38246,3.8261
1.3908,3.82663
1.39913,3.82727
1.40746,3.82794
1.4158,3.82863
1.42413,3.82924
1.43246,3.82991
1.4408,3.83042
1.44913,3.8311
1.45746,3.83171
1.4658,3.83234
1.47413,3.83307
1.48246,3.8337
1.4908,3.8344
1.49913,3.83508
1.50746,3.83568
1.5158,3.8362
1.52413,3.83692
1.53246,3.83769
1.5408,3.83828
1.54913,3.83893
1.55746,3.83961
1.5658,3.84034
1.57413,3.84095
1.58246,3.8416
1.5908,3.84242
1.59913,3.84301
1.60746,3.84371
1.6158,3.84432
1.62413,3.84498
1.63246,3.84578
1.6408,3.84643
1.64913,3.84709
1.65746,3.84782
1.6658,3.84842
1.67413,3.84921
1.68246,3.84989
1.6908,3.85067
1.69913,3.85134
1.70746,3.85206
1.7158,3.85273
1.72413,3.85344
1.73246,3.8542
1.7408,3.85489
1.74913,3.85569
1.75746,3.85638
1.7658,3.85726
1.77413,3.8579
1.78246,3.85866
1.7908,3.85941
1.79913,3.86017
1.80746,3.86101
1.8158,3.86164
1.82413,3.86259
1.83246,3.86318
1.8408,3.86408
1.84913,3.86469
1.85746,3.86565
1.8658,3.8664
1.87413,3.86727
1.88246,3.86808
1.8908,3.86881
1.89913,3.86961
1.90746,3.87054
1.9158,3.87128
1.92413,3.87213
1.93246,3.87288
1.9408,3.87379
1.94913,3.87471
1.95746,3.87551
1.9658,3.87637
1.97413,3.87731
1.98246,3.87806
1.9908,3.87905
1.99913,3.87988
2.00746,3.88072
2.0158,3.88164
2.02413,3.88261
2.03246,3.88348
2.0408,3.88436
2.04913,3.8853
2.05746,3.88618
2.0658,3.88712
2.07413,3.88787
2.08246,3.88888
2.0908,3.88984
2.09913,3.89083
2.10746,3.89162
2.1158,3.89264
2.12413,3.89361
2.13246,3.89455
2.1408,3.89546
2.14913,3.89649
2.15746,3.89738
2.1658,3.8983
2.17413,3.89933
2.18246,3.90025
2.1908,3.90132
2.19913,3.90228
2.20746,3.90318
2.2158,3.90421
2.22413,3.9052
2.23246,3.90617
2.2408,3.90719
2.24913,3.90823
2.25746,3.90926
2.2658,3.91025
2.27413,3.91113
2.28246,3.91232
2.2908,3.91325
2.29913,3.91428
2.30746,3.91528
2.3158,3.91636
2.32413,3.91735
2.33246,3.91845
2.3408,3.91938
2.34913,3.92047
2.35746,3.92148
2.3658,3.92238
2.37413,3.92357
2.38246,3.92467
2.3908,3.92573
2.39913,3.92682
2.40746,3.92782
2.4158,3.92895
2.42413,3.93
2.43246,3.93088
2.4408,3.93204
2.44913,3.93313
2.45746,3.93419
2.4658,3.93524
2.47413,3.9364
2.48246,3.93752
2.4908,3.93849
2.49913,3.93959
2.50746,3.94076
2.5158,3.94169
2.52413,3.94285
2.53246,3.9439
2.5408,3.9451
2.54913,3.94607
2.55746,3.94721
2.5658,3.94834
2.57413,3.94934
2.58246,3.95044
2.5908,3.9516
2.59913,3.95272
2.60746,3.95379
2.6158,3.95486
2.62413,3.95589
2.63246,3.95722
2.6408,3.95823
2.64913,3.95929
2.65746,3.96045
2.6658,3.96141
2.67413,3.96263
2.68246,3.96363
2.6908,3.96485
2.69913,3.96595
2.70746,3.96707
2.7158,3.96817
2.72413,3.96931
2.73246,3.97046
2.7408,3.9715
2.74913,3.97263
2.75746,3.97383
2.7658,3.97483
2.77413,3.97613
2.78246,3.97708
2.7908,3.97842
2.79913,3.97957
2.80746,3.98051
2.8158,3.98167
2.82413,3.98271
2.83246,3.98401
2.8408,3.98505
2.84913,3.98607
2.85746,3.98729
2.8658,3.98831
2.87413,3.98951
2.88246,3.99054
2.8908,3.99178
2.89913,3.99289
2.90746,3.99397
2.9158,3.99514
2.92413,3.99625
2.93246,3.99736
2.9408,3.99849
2.94913,3.99971
2.95746,4.0008
2.9658,4.00193
2.97413,4.00303
2.98246,4.00416
2.9908,4.00533
2.99913,4.00648
3.00746,4.00774
3.0158,4.00871
3.02413,4.0098
3.03246,4.01115
3.0408,4.01212
3.04913,4.01334
3.05746,4.01442
3.0658,4.01557
3.07413,4.01677
3.08246,4.01799
3.0908,4.01908
3.09913,4.02008
3.10746,4.02138
3.1158,4.02244
3.12413,4.0237
3.13246,4.02481
3.1408,4.02589
3.14913,4.02712
3.15746,4.02829
3.1658,4.02936
3.17413,4.03054
3.18246,4.0317
3.1908,4.03284
3.19913,4.03399
3.20746,4.03516
3.2158,4.03628
3.22413,4.03746
3.23246,4.03874
3.2408,4.0398
3.24913,4.04094
3.25746,4.0421
3.2658,4.04327
3.27413,4.04442
3.28246,4.04565
3.2908,4.04685
3.29913,4.04792
3.30746,4.04913
3.3158,4.05026
3.32413,4.05133
3.33246,4.05259
3.3408,4.05383
3.34913,4.05482
3.35746,4.056
3.3658,4.05721
3.37413,4.05846
3.38246,4.05972
3.3908,4.0608
3.39913,4.06192
3.40746,4.06315
3.4158,4.06432
3.42413,4.06558
3.43246,4.06665
3.4408,4.06795
3.44913,4.06904
3.45746,4.0702
3.4658,4.07146
3.47413,4.07264
3.48246,4.0738
3.4908,4.07501
3.49913,4.07618
3.50746,4.07748
3.5158,4.07867
3.52413,4.0798
3.53246,4.08108
3.5408,4.08228
3.54913,4.08344
3.55746,4.08461
3.5658,4.0858
3.57413,4.08704
3.58246,4.08821
3.5908,4.08946
3.59913,4.09069
3.60746,4.09181
3.6158,4.09314
3.62413,4.09431
3.63246,4.09565
3.6408,4.09675
3.64913,4.09815
3.65746,4.0991
3.6658,4.10051
3.67413,4.1017
3.68246,4.10301
3.6908,4.10421
3.69913,4.10542
3.70746,4.10668
3.7158,4.10787
3.72413,4.10912
3.73246,4.11049
3.7408,4.11175
3.74913,4.11294
3.75746,4.11422
3.7658,4.11544
3.77413,4.11675
3.78246,4.11796
3.7908,4.11927
3.79913,4.12056
3.80746,4.12181
3.8158,4.12317
3.82413,4.12432
3.83246,4.12567
3.8408,4.12696
3.84913,4.12816
3.85746,4.12961
3.8658,4.13068
3.87413,4.13197
3.88246,4.13341
3.8908,4.13461
3.89913,4.13587
3.90746,4.13721
3.9158,4.13853
3.92413,4.13992
3.93246,4.14111
3.9408,4.14238
3.94913,4.14358
3.95746,4.14523
3.9658,4.14642
3.97413,4.14768
3.98246,4.14911
3.9908,4.15033
3.99913,4.15171
4.00746,4.153
4.0158,4.15442
4.02413,4.15569
4.03246,4.15692
4.0408,4.15838
4.04913,4.15963
4.05746,4.16103
4.0658,4.16234
4.07413,4.1637
4.08246,4.16503
4.0908,4.1665
4.09913,4.16772
4.10746,4.16911
4.1158,4.17051
4.12413,4.17201
4.13246,4.17331
4.1408,4.17476
4.14913,4.17606
4.15746,4.17742
4.1658,4.1788
4.17413,4.18008
4.18246,4.1815
4.1908,4.18291
4.19913,4.18423
4.20746,4.18567
4.2158,4.18709
4.22413,4.1885
4.23246,4.18984
4.2408,4.19124
4.24913,4.19264
4.25746,4.19409
4.2658,4.19546
4.27413,4.19688
4.28246,4.19837
4.2908,4.19978
4.29913,4.20129
4.30746,4.20256
4.3158,4.20401
4.32413,4.20553
4.33246,4.20695
4.3408,4.20843
4.34913,4.20978
4.35746,4.21118
4.3658,4.21251
4.37413,4.21399
4.38246,4.21564
4.3908,4.21686
4.39913,4.21838
4.40746,4.21985
4.4158,4.22128
4.42413,4.22281
4.43246,4.22414
4.4408,4.22562
4.44913,4.22714
4.45746,4.22864
4.4658,4.22998
4.47413,4.23156
4.48246,4.23298
4.4908,4.23452
4.49913,4.23585
4.50746,4.23737
4.5158,4.23891
4.52413,4.24038
4.53246,4.24182
4.5408,4.24331
4.54913,4.24477
4.55746,4.24634
4.5658,4.24788
4.57413,4.24919
4.58246,4.25089
4.5908,4.25231
4.59913,4.25379
4.60746,4.25522
4.6158,4.25684
4.62413,4.25831
4.63246,4.25983
4.6408,4.26135
4.64913,4.26274
4.65746,4.26433
4.6658,4.26572
4.67413,4.2674
4.68246,4.26878
4.6908,4.27035
4.69913,4.27176
4.70746,4.27337
4.7158,4.27487
4.72413,4.27656
4.73246,4.27798
4.7408,4.27955
4.74913,4.28108
4.75746,4.28264
4.7658,4.2841
4.77413,4.28576
4.78246,4.28719
4.7908,4.28876
4.79913,4.29026
4.80746,4.29186
4.8158,4.29347
4.82413,4.29502
4.83246,4.29659
4.8408,4.29799
4.84913,4.29962
4.85746,4.30119
4.8658,4.30268
4.87413,4.3043
4.88246,4.30572
4.8908,4.3075
4.89913,4.30889
4.90746,4.31055
4.9158,4.31219
4.92413,4.31366
4.93246,4.31535
4.9408,4.31687
4.94913,4.31852
4.95746,4.32012
4.9658,4.32163
4.97413,4.32329
4.98246,4.32486
4.9908,4.32646
4.99913,4.32801
5.00746,4.32951
5.0158,4.33131
5.02413,4.33283
5.03246,4.33433
5.0408,4.33595
5.04913,4.33749
5.05746,4.33899
5.0658,4.34058
5.07413,4.34224
5.08246,4.34378
5.0908,4.34541
5.09913,4.34692
5.10746,4.34856
5.1158,4.35005
5.12413,4.35162
5.13246,4.3532
5.1408,4.35476
5.14913,4.35632
5.15746,4.35786
5.1658,4.35934
5.17413,4.3609
5.18246,4.36232
5.1908,4.36385
5.19913,4.36531
5.20746,4.36681
5.2158,4.36839
5.22413,4.3697
5.23246,4.3712
5.2408,4.37262
5.24913,4.37412
5.25746,4.37552
5.2658,4.37684
5.27413,4.37831
5.28246,4.37973
5.2908,4.38112
5.29913,4.38262
5.30746,4.38398
5.3158,4.38515
5.32413,4.38663
5.33246,4.38771
5.3408,4.3891
5.34913,4.39028
5.35746,4.39157
5.3658,4.3929
5.37413,4.3941
5.38246,4.3954
5.3908,4.39646
5.39913,4.39786
5.40746,4.39885
5.4158,4.40014
5.42413,4.40125
5.43246,4.4025
5.4408,4.40358
5.44913,4.40472
5.45746,4.40589
5.4658,4.40692
5.47413,4.40817
5.48246,4.40927
5.4908,4.41034
5.49913,4.41148
5.50746,4.41245
5.5158,4.41342
5.52413,4.41459
5.53246,4.41558
5.5408,4.4166
5.54913,4.41766
5.55746,4.41862
5.5658,4.41956
5.57413,4.42058
5.58246,4.42152
5.5908,4.42253
5.59913,4.42344
5.60746,4.42449
5.6158,4.42544
5.62413,4.42643
5.63246,4.4272
5.6408,4.42831
5.64913,4.42933
5.65746,4.43021
5.6658,4.43113
5.67413,4.43194
5.68246,4.43281
5.6908,4.43368
5.69913,4.43468
5.70746,4.43552
5.7158,4.4364
5.72413,4.43738
5.73246,4.43824
5.7408,4.43903
5.74913,4.43984
5.75746,4.44067
5.7658,4.44168
5.77413,4.44237
5.78246,4.44314
5.7908,4.44402
5.79913,4.44482
5.80746,4.44559
5.8158,4.44626
5.82413,4.44728
5.83246,4.44801
5.8408,4.44884
5.84913,4.44953
5.85746,4.45031
5.8658,4.45107
5.87413,4.45186
5.88246,4.45263
5.8908,4.4535
5.89913,4.45415
5.90746,4.45489
5.9158,4.45556
5.92413,4.45625
5.93246,4.45716
5.9408,4.4578
5.94913,4.45859
5.95746,4.45921
5.9658,4.45992
5.97413,4.46076
5.98246,4.46139
5.9908,4.46201
5.99913,4.46275
6.00746,4.46343
6.0158,4.46413
6.02413,4.46481
6.03246,4.46533
6.0408,4.46599
6.04913,4.46666
6.05746,4.46732
6.0658,4.46801
6.07413,4.46869
6.08246,4.46937
6.0908,4.47
6.09913,4.47067
6.10746,4.47135
6.1158,4.472
6.12413,4.47255
6.13246,4.47313
6.1408,4.47381
6.14913,4.47447
6.15746,4.47497
6.1658,4.47568
6.17413,4.47624
6.18246,4.47681
6.1908,4.47747
6.19913,4.47797
6.20746,4.47863
6.2158,4.47911
6.22413,4.47978
6.23246,4.4803
6.2408,4.48088
6.24913,4.48153
6.25746,4.48204
6.2658,4.4826
6.27413,4.48318
6.28246,4.48359
6.2908,4.48416
6.29913,4.48462
6.30746,4.48519
6.3158,4.48583
6.32413,4.48635
6.33246,4.48695
6.3408,4.48758
6.34913,4.48816
6.35746,4.48881
6.3658,4.48916
6.37413,4.48967
6.38246,4.49022
6.3908,4.49081
6.39913,4.49127
6.40746,4.49169
6.4158,4.49234
6.42413,4.49272
6.43246,4.49321
6.4408,4.49375
6.44913,4.49428
6.45746,4.4946
6.4658,4.49517
6.47413,4.4956
6.48246,4.49607
6.4908,4.49652
6.49913,4.49715
6.50746,4.49745
6.5158,4.49795
6.52413,4.49827
6.53246,4.49881
6.5408,4.49924
6.54913,4.49968
6.55746,4.50004
6.5658,4.50052
6.57413,4.50092
6.58246,4.50119
6.5908,4.50163
6.59913,4.50207
6.60746,4.50259
6.6158,4.50292
6.62413,4.50332
6.63246,4.50366
6.6408,4.50411
6.64913,4.50442
6.65746,4.50498
6.6658,4.50531
6.67413,4.50579
6.68246,4.50622
6.6908,4.50651
6.69913,4.50699
6.70746,4.50724
6.7158,4.50774
6.72413,4.50813
6.73246,4.50858
6.7408,4.50906
6.74913,4.5094
6.75746,4.50971
6.7658,4.51
6.77413,4.51043
6.78246,4.51078
6.7908,4.51103
6.79913,4.51135
6.80746,4.51169
6.8158,4.51198
6.82413,4.51233
6.83246,4.51272
6.8408,4.51306
6.84913,4.51352
6.85746,4.51368
6.8658,4.51415
6.87413,4.5144
6.88246,4.51468
6.8908,4.51502
6.89913,4.51534
6.90746,4.51565
6.9158,4.51615
6.92413,4.51652
6.93246,4.51679
6.9408,4.51716
6.94913,4.51733
6.95746,4.51773
6.9658,4.51815
6.97413,4.51841
6.98246,4.51887
6.9908,4.51911
6.99913,4.51962
7.00746,4.5197
7.0158,4.51991
7.02413,4.52031
7.03246,4.52062
7.0408,4.52076
7.04913,4.52108
7.05746,4.52152
7.0658,4.52159
7.07413,4.52199
7.08246,4.52208
7.0908,4.52241
7.09913,4.52272
7.10746,4.52299
7.1158,4.52317
7.12413,4.52357
7.13246,4.52372
7.1408,4.52386
7.14913,4.52428
7.15746,4.52448
7.1658,4.52481
7.17413,4.52494
7.18246,4.52524
7.1908,4.52566
7.19913,4.52581
7.20746,4.52602
7.2158,4.52641
7.22413,4.52667
7.23246,4.52709
7.2408,4.5272
7.24913,4.52762
7.25746,4.5277
7.2658,4.52795
7.27413,4.52802
7.28246,4.52835
7.2908,4.52867
7.29913,4.52879
7.30746,4.52896
7.3158,4.52925
7.32413,4.52936
7.33246,4.52967
7.3408,4.52995
7.34913,4.53015
7.35746,4.53029
7.3658,4.53058
7.37413,4.53096
7.38246,4.53109
7.3908,4.53129
7.39913,4.5316
7.40746,4.53185
7.4158,4.53203
7.42413,4.53236
7.43246,4.53254
7.4408,4.53274
7.44913,4.53295
7.45746,4.53334
7.4658,4.53353
7.47413,4.53383
7.48246,4.5341
7.4908,4.53434
7.49913,4.53444
7.50746,4.53469
7.5158,4.53488
7.52413,4.53511
7.53246,4.53531
7.5408,4.53545
7.54913,4.53571
7.55746,4.53586
7.5658,4.53621
7.57413,4.53613
7.58246,4.53646
7.5908,4.53664
7.59913,4.53686
7.60746,4.53705
7.6158,4.53718
7.62413,4.53734
7.63246,4.53753
7.6408,4.53786
7.64913,4.5381
7.65746,4.53839
7.6658,4.53853
7.67413,4.53874
7.68246,4.53893
7.6908,4.5393
7.69913,4.5393
7.70746,4.5396
7.7158,4.53998
7.72413,4.54028
7.73246,4.54045
7.7408,4.54056
7.74913,4.54091
7.75746,4.54106
7.7658,4.54125
7.77413,4.54138
7.78246,4.54167
7.7908,4.5417
7.79913,4.54187
7.80746,4.54218
7.8158,4.54221
7.82413,4.54248
7.83246,4.54259
7.8408,4.54283
7.84913,4.54307
7.85746,4.5433
7.8658,4.54329
7.87413,4.54345
7.88246,4.54357
7.8908,4.54382
7.89913,4.54394
7.90746,4.54408
7.9158,4.54431
7.92413,4.54442
7.93246,4.54455
7.9408,4.54477
7.94913,4.54495
7.95746,4.54513
7.96579,4.54539
7.97413,4.54559
7.98246,4.54587
7.99079,4.54617
7.99913,4.54626
8.00746,4.54654
8.01579,4.54666
8.02413,4.54665
8.03246,4.54712
8.04079,4.54722
8.04913,4.54732
8.05746,4.54757
8.06579,4.54771
8.07413,4.54807
8.08246,4.54816
8.09079,4.54838
8.09913,4.54846
8.10746,4.54867
8.11579,4.54887
8.12413,4.54898
8.13246,4.54922
8.14079,4.5493
8.14913,4.54941
8.15746,4.54967
8.16579,4.54977
8.17413,4.55013
8.18246,4.55021
8.19079,4.55032
8.19913,4.5505
8.20746,4.55059
8.21579,4.55079
8.22413,4.55114
8.23246,4.55128
8.24079,4.55153
8.24913,4.55167
8.25746,4.55178
8.26579,4.5519
8.27413,4.55209
8.28246,4.5522
8.29079,4.55246
8.29913,4.55257
8.30746,4.55297
8.31579,4.55299
8.32413,4.55323
8.33246,4.55347
8.34079,4.55379
8.34913,4.55393
8.35746,4.55416
8.36579,4.55426
8.37413,4.55442
8.38246,4.55452
8.39079,4.55487
8.39913,4.55494
8.40746,4.55512
8.41579,4.55526
8.42413,4.55545
8.43246,4.55559
8.44079,4.55577
8.44913,4.55604
8.45746,4.55615
8.46579,4.55631
8.47413,4.55657
8.48246,4.55676
8.49079,4.55695
8.49913,4.5572
8.50746,4.55735
8.51579,4.55739
8.52413,4.55749
8.53246,4.55785
8.54079,4.55782
8.54913,4.5579
8.55746,4.55825
8.56579,4.55828
8.57413,4.5586
8.58246,4.55876
8.59079,4.55898
8.59913,4.55925
8.60746,4.55928
8.61579,4.55963
8.62413,4.55987
8.63246,4.55992
8.64079,4.56006
8.64913,4.56037
8.65746,4.56051
8.66579,4.56068
8.67413,4.56078
8.68246,4.56098
8.69079,4.56118
8.69913,4.56125
8.70746,4.56157
8.71579,4.56177
8.72413,4.56202
8.73246,4.56226
8.74079,4.56246
8.74913,4.56273
8.75746,4.56293
8.76579,4.56291
8.77413,4.56294
8.78246,4.56316
8.79079,4.56336
8.79913,4.56348
8.80746,4.56366
8.81579,4.56382
8.82413,4.56394
8.83246,4.56412
8.84079,4.56433
8.84913,4.56451
8.85746,4.56473
8.86579,4.5648
8.87413,4.56514
8.88246,4.56537
8.89079,4.56549
8.89913,4.5657
8.90746,4.56608
8.91579,4.56612
8.92413,4.56628
8.93246,4.56662
8.94079,4.56674
8.94913,4.56688
8.95746,4.56716
8.96579,4.56735
8.97413,4.56752
8.98246,4.568
8.99079,4.5682
8.99913,4.56833
9.00746,4.56845
9.01579,4.56871
9.02413,4.56867
9.03246,4.56894
9.04079,4.56907
9.04913,4.56937
9.05746,4.56945
9.06579,4.56963
9.07413,4.56977
9.08246,4.57
9.09079,4.5702
9.09913,4.57039
9.10746,4.57069
9.11579,4.57077
9.12413,4.57101
9.13246,4.57123
9.14079,4.57133
9.14913,4.57158
9.15746,4.57172
9.16579,4.5719
9.17413,4.57226
9.18246,4.57254
9.19079,4.5728
9.19913,4.57306
9.20746,4.57329
9.21579,4.57374
9.22413,4.57395
9.23246,4.57415
9.24079,4.57431
9.24913,4.57479
9.25746,4.57482
9.26579,4.57511
9.27413,4.57525
9.28246,4.5754
9.29079,4.57559
9.29913,4.57584
9.30746,4.57602
9.31579,4.57605
9.32413,4.57636
9.33246,4.57668
9.34079,4.5769
9.34913,4.57706
9.35746,4.57728
9.36579,4.57753
9.37413,4.57765
9.38246,4.57794
9.39079,4.57816
9.39913,4.57826
9.40746,4.5786
9.41579,4.57874
9.42413,4.57892
9.43246,4.57924
9.44079,4.57971
9.44913,4.57985
9.45746,4.58016
9.46579,4.58047
9.47413,4.58068
9.48246,4.58104
9.49079,4.58137
9.49913,4.58172
9.50746,4.58183
9.51579,4.58217
9.52413,4.58232
9.53246,4.58261
9.54079,4.58268
9.54913,4.58302
9.55746,4.58325
9.56579,4.58348
9.57413,4.58361
9.58246,4.58402
9.59079,4.58426
9.59913,4.58444
9.60746,4.5847
9.61579,4.5849
9.62413,4.58527
9.63246,4.58552
9.64079,4.58579
9.64913,4.58601
9.65746,4.58626
9.66579,4.58642
9.67413,4.58667
9.68246,4.587
9.69079,4.58725
9.69913,4.58764
9.70746,4.58793
9.71579,4.58822
9.72413,4.58875
9.73246,4.58903
9.74079,4.58938
9.74913,4.58989
9.75746,4.59004
9.76579,4.59024
9.77413,4.59058
9.78246,4.59092
9.79079,4.5911
9.79913,4.59145
9.80746,4.59177
9.81579,4.59207
9.82413,4.59238
9.83246,4.59263
9.84079,4.59295
9.84913,4.59329
9.85746,4.59344
9.86579,4.59389
9.87413,4.59426
9.88246,4.59444
9.89079,4.59467
9.89913,4.59502
9.90746,4.59529
9.91579,4.59563
9.92413,4.59601
9.93246,4.59636
9.94079,4.59668
9.94913,4.59698
9.95746,4.59732
9.96579,4.59774
9.97413,4.59816
9.98246,4.5985
9.99079,4.59897
9.99913,4.59944
10.00746,4.59975
10.01579,4.6002
10.02413,4.60042
10.03246,4.60076
10.04079,4.60117
10.04913,4.60161
10.05746,4.60183
10.06579,4.60231
10.07413,4.6025
10.08246,4.603
10.09079,4.60328
10.09913,4.60369
10.10746,4.60413
10.11579,4.60436
10.12413,4.60482
10.13246,4.60527
10.14079,4.60562
10.14913,4.60605
10.15746,4.60632
10.16579,4.6068
10.17413,4.6072
10.18246,4.60753
10.19079,4.60814
10.19913,4.60846
10.20746,4.60889
10.21579,4.60923
10.22413,4.60984
10.23246,4.61018
10.24079,4.61059
10.24913,4.61087
10.25746,4.61141
10.26579,4.61196
10.27413,4.61239
10.28246,4.61288
10.29079,4.6134
10.29913,4.61389
10.30746,4.61427
10.31579,4.615
10.32413,4.61551
10.33246,4.61602
10.34079,4.61641
10.34913,4.61701
10.35746,4.6175
10.36579,4.61796
10.37413,4.61865
10.38246,4.61915
10.39079,4.61967
10.39913,4.62014
10.40746,4.62075
10.41579,4.62126
10.42413,4.62186
10.43246,4.62237
10.44079,4.6227
10.44913,4.62347
10.45746,4.62408
10.46579,4.62464
10.47413,4.62519
10.48246,4.62563
10.49079,4.62635
10.49913,4.6269
10.50746,4.62737
10.51579,4.62805
10.52413,4.62872
10.53246,4.62936
10.54079,4.62993
10.54913,4.63072
10.55746,4.63125
10.56579,4.6321
10.57413,4.63286
10.58246,4.63354
10.59079,4.63413
10.59913,4.63488
10.60746,4.63558
10.61579,4.63632
10.62413,4.63707
10.63246,4.6378
10.64079,4.63846
10.64913,4.6393
10.65746,4.6399
10.66579,4.64069
10.67413,4.64148
10.68246,4.64217
10.69079,4.64293
10.69913,4.64383
10.70746,4.64453
10.71579,4.6453
10.72413,4.64616
10.73246,4.64694
10.74079,4.64781
10.74913,4.64865
10.75746,4.64961
10.76579,4.65047
10.77413,4.65136
10.78246,4.65238
10.79079,4.65322
10.79913,4.65416
10.80746,4.65516
10.81579,4.65597
10.82413,4.65698
10.83246,4.65807
10.84079,4.65894
10.84913,4.65987
10.85746,4.6609
10.86579,4.66177
10.87413,4.66287
10.88246,4.66393
10.89079,4.66495
10.89913,4.66583
10.90746,4.66682
10.91579,4.66786
10.92413,4.66897
10.93246,4.67001
10.94079,4.67112
10.94913,4.67219
10.95746,4.6733
10.96579,4.67446
10.97413,4.67553
10.98246,4.67686
10.99079,4.67791
10.99913,4.67907
11.00746,4.68037
11.01579,4.68156
11.02413,4.68285
11.03246,4.68406
11.04079,4.68551
11.04913,4.68679
11.05746,4.68809
11.06579,4.6895
11.07413,4.69084
11.08246,4.69225
11.09079,4.69365
11.09913,4.69512
11.10746,4.69642
11.11579,4.69802
11.12413,4.69933
11.12716,4.70006
11.12716,4.69999
11.12716,4.69272
11.12722,4.68269
11.12729,4.67265
11.12738,4.66258
11.12747,4.65257
11.12758,4.64256
11.12769,4.63253
11.12783,4.62246
11.12798,4.61245
11.12816,4.60244
11.12837,4.59243
11.12862,4.58242
11.12896,4.57237
11.1294,4.56234
11.13003,4.55233
11.13104,4.54231
11.13288,4.53227
11.13673,4.52225
11.14468,4.51218
11.15301,4.50572
11.16135,4.50047
11.16968,4.49573
11.17801,4.49156
11.18635,4.48766
11.19468,4.48397
11.20301,4.48057
11.21135,4.47719
11.21968,4.47385
11.22801,4.47071
11.23635,4.46774
11.24468,4.46473
11.25301,4.46184
11.26135,4.45907
11.26968,4.45636
11.27801,4.45366
11.28635,4.45098
11.29468,4.44846
11.30301,4.44582
11.31135,4.44334
11.31968,4.44068
11.32801,4.43828
11.33635,4.43574
11.34468,4.43347
11.35301,4.43102
11.36135,4.42874
11.36968,4.42642
11.37801,4.4241
11.38635,4.42186
11.39468,4.41956
11.40301,4.41747
11.41135,4.41523
11.41968,4.41301
11.42801,4.41088
11.43635,4.40879
11.44468,4.40666
11.45301,4.40465
11.46135,4.40252
11.46968,4.4005
11.47801,4.39853
11.48635,4.39637
11.49468,4.39451
11.50301,4.39249
11.51135,4.39063
11.51968,4.38869
11.52801,4.38658
11.53635,4.38464
11.54468,4.38286
11.55301,4.381
11.56135,4.37897
11.56968,4.37707
11.57801,4.37526
11.58635,4.37345
11.59468,4.37152
11.60301,4.36974
11.61135,4.36782
11.61968,4.36604
11.62801,4.36428
11.63635,4.36236
11.64468,4.36059
11.65301,4.35879
11.66135,4.35695
11.66968,4.35512
11.67801,4.35334
11.68635,4.35172
11.69468,4.34978
11.70301,4.34806
11.71135,4.34622
11.71968,4.34433
11.72801,4.3427
11.73635,4.34096
11.74468,4.33917
11.75301,4.33735
11.76135,4.33558
11.76968,4.33392
11.77801,4.33214
11.78635,4.33048
11.79468,4.32875
11.80301,4.32686
11.81135,4.32518
11.81968,4.32352
11.82801,4.32171
11.83635,4.32002
11.84468,4.31828
11.85301,4.31645
11.86135,4.31472
11.86968,4.31304
11.87801,4.31137
11.88635,4.30963
11.89468,4.30789
11.90301,4.30616
11.91135,4.30459
11.91968,4.30272
11.92801,4.30098
11.93635,4.29938
11.94468,4.2978
11.95301,4.296
11.96135,4.2942
11.96968,4.2925
11.97801,4.29068
11.98635,4.28904
11.99468,4.28731
12.00301,4.28542
12.01135,4.28373
12.01968,4.28201
12.02801,4.28031
12.03635,4.27869
12.04468,4.27684
12.05301,4.27514
12.06135,4.27353
12.06968,4.27176
12.07801,4.27001
12.08635,4.26838
12.09468,4.26663
12.10301,4.26493
12.11135,4.26331
12.11968,4.26156
12.12801,4.25984
12.13635,4.25823
12.14468,4.25652
12.15301,4.25481
12.16135,4.25319
12.16968,4.25144
12.17801,4.24985
12.18635,4.24809
12.19468,4.24639
12.20301,4.24463
12.21135,4.243
12.21968,4.24147
12.22801,4.23967
12.23635,4.23794
12.24468,4.23629
12.25301,4.23461
12.26135,4.23275
12.26968,4.23109
12.27801,4.22946
12.28635,4.22782
12.29468,4.22618
12.30301,4.22442
12.31135,4.22279
12.31968,4.22105
12.32801,4.21945
12.33635,4.2177
12.34468,4.21608
12.35301,4.21438
12.36135,4.21272
12.36968,4.21094
12.37801,4.20935
12.38635,4.2077
12.39468,4.20611
12.40301,4.20429
12.41135,4.20275
12.41968,4.20094
12.42801,4.19938
12.43635,4.19763
12.44468,4.19601
12.45301,4.19429
12.46135,4.1927
12.46968,4.19085
12.47801,4.18929
12.48635,4.1877
12.49468,4.18598
12.50301,4.18443
12.51135,4.18271
12.51968,4.18097
12.52801,4.17948
12.53635,4.17766
12.54468,4.17604
12.55301,4.17447
12.56135,4.17276
12.56968,4.17106
12.57801,4.16941
12.58635,4.16778
12.59468,4.16614
12.60301,4.16464
12.61135,4.16291
12.61968,4.1612
12.62801,4.15957
12.63635,4.1579
12.64468,4.1564
12.65301,4.15476
12.66135,4.15315
12.66968,4.15154
12.67801,4.14985
12.68635,4.14826
12.69468,4.14673
12.70301,4.14499
12.71135,4.14345
12.71968,4.14191
12.72801,4.14017
12.73635,4.13867
12.74468,4.13706
12.75301,4.13544
12.76135,4.13394
12.76968,4.13235
12.77801,4.1307
12.78635,4.12923
12.79468,4.12771
12.80301,4.12596
12.81135,4.12435
12.81968,4.12284
12.82801,4.12132
12.83635,4.11969
12.84468,4.11816
12.85301,4.11664
12.86135,4.11505
12.86968,4.11341
12.87801,4.11189
12.88635,4.11036
12.89468,4.10882
12.90301,4.10725
12.91135,4.10562
12.91968,4.10427
12.92801,4.10274
12.93635,4.10117
12.94468,4.09965
12.95301,4.09802
12.96135,4.09661
12.96968,4.09508
12.97801,4.09367
12.98635,4.09216
12.99468,4.09066
13.00301,4.08917
13.01135,4.08762
13.01968,4.08612
13.02801,4.08481
13.03635,4.08317
13.04468,4.08179
13.05301,4.08022
13.06135,4.07884
13.06968,4.07745
13.07801,4.07586
13.08635,4.07452
13.09468,4.07308
13.10301,4.07161
13.11135,4.07009
13.11968,4.06863
13.12801,4.06724
13.13635,4.06581
13.14468,4.06457
13.15301,4.06305
13.16135,4.06156
13.16968,4.06022
13.17801,4.05868
13.18635,4.05737
13.19468,4.05588
13.20301,4.05456
13.21135,4.05311
13.21968,4.0517
13.22801,4.0503
13.23635,4.04897
13.24468,4.0475
13.25301,4.04618
13.26135,4.04466
13.26968,4.04324
13.27801,4.04196
13.28635,4.04058
13.29468,4.03922
13.30301,4.03794
13.31135,4.03651
13.31968,4.03515
13.32801,4.03385
13.33635,4.0325
13.34468,4.03106
13.35301,4.02979
13.36135,4.02834
13.36968,4.02721
13.37801,4.02584
13.38635,4.02449
13.39468,4.02316
13.40301,4.02194
13.41135,4.02053
13.41968,4.01923
13.42801,4.018
13.43635,4.01657
13.44468,4.01543
13.45301,4.01416
13.46135,4.01286
13.46968,4.01141
13.47801,4.01033
13.48635,4.009
13.49468,4.00767
13.50301,4.0064
13.51135,4.00509
13.51968,4.00392
13.52801,4.0026
13.53635,4.00146
13.54468,4.00017
13.55301,3.99888
13.56135,3.99752
13.56968,3.99632
13.57801,3.99514
13.58635,3.99393
13.59468,3.99271
13.60301,3.99135
13.61135,3.99021
13.61968,3.98898
13.62801,3.98771
13.63635,3.9866
13.64468,3.98537
13.65301,3.9841
13.66135,3.98305
13.66968,3.98179
13.67801,3.9807
13.68635,3.9795
13.69468,3.97815
13.70301,3.97714
13.71135,3.97584
13.71968,3.97483
13.72801,3.97346
13.73635,3.97238
13.74468,3.97128
13.75301,3.97013
13.76135,3.96891
13.76968,3.96773
13.77801,3.96662
13.78635,3.96555
13.79468,3.96431
13.80301,3.96315
13.81135,3.96207
13.81968,3.96089
13.82801,3.95983
13.83635,3.9587
13.84468,3.95763
13.85301,3.95647
13.86135,3.95538
13.86968,3.95432
13.87801,3.95327
13.88635,3.95204
13.89468,3.95094
13.90301,3.94997
13.91135,3.94878
13.91968,3.94764
13.92801,3.94659
13.93635,3.9455
13.94468,3.94444
13.95301,3.94325
13.96135,3.9423
13.96968,3.94121
13.97801,3.94025
13.98635,3.93917
13.99468,3.93805
14.00301,3.93694
14.01135,3.93594
14.01968,3.93486
14.02801,3.93389
14.03635,3.93279
14.04468,3.93181
14.05301,3.93073
14.06135,3.92976
14.06968,3.92863
14.07801,3.92765
14.08635,3.92662
14.09468,3.92569
14.10301,3.92462
14.11135,3.92351
14.11968,3.92247
14.12801,3.92161
14.13635,3.9207
14.14468,3.9196
14.15301,3.91866
14.16135,3.91753
14.16968,3.91654
14.17801,3.91561
14.18635,3.91465
14.19468,3.91368
14.20301,3.9127
14.21135,3.91168
14.21968,3.91067
14.22801,3.90965
14.23635,3.90866
14.24468,3.90781
14.25301,3.90675
14.26135,3.90583
14.26968,3.90482
14.27801,3.90381
14.28635,3.90287
14.29468,3.90202
14.30301,3.90098
14.31135,3.90001
14.31968,3.89911
14.32801,3.89823
14.33635,3.89723
14.34468,3.89632
14.35301,3.89537
14.36135,3.8944
14.36968,3.89347
14.37801,3.89258
14.38635,3.89174
14.39468,3.89071
14.40301,3.88976
14.41135,3.88895
14.41968,3.88806
14.42801,3.88698
14.43635,3.88614
14.44468,3.8852
14.45301,3.8843
14.46135,3.8834
14.46968,3.8825
14.47801,3.8815
14.48635,3.88059
14.49468,3.87978
14.50301,3.87883
14.51135,3.87796
14.51968,3.87706
14.52801,3.87606
14.53635,3.87513
14.54468,3.8742
14.55301,3.87358
14.56135,3.87251
14.56968,3.87162
14.57801,3.8707
14.58635,3.86974
14.59468,3.86901
14.60301,3.86807
14.61135,3.86723
14.61968,3.86641
14.62801,3.86536
14.63635,3.86466
14.64468,3.86371
14.65301,3.86282
14.66135,3.86196
14.66968,3.86111
14.67801,3.86021
14.68635,3.85939
14.69468,3.85841
14.70301,3.85755
14.71135,3.85675
14.71968,3.85597
14.72801,3.85505
14.73635,3.85424
14.74468,3.85341
14.75301,3.8525
14.76135,3.8516
14.76968,3.85073
14.77801,3.8499
14.78635,3.84903
14.79468,3.84824
14.80301,3.84747
14.81135,3.84666
14.81968,3.84582
14.82801,3.8448
14.83635,3.84408
14.84468,3.84331
14.85301,3.84227
14.86135,3.84154
14.86968,3.84057
14.87801,3.83987
14.88635,3.83896
14.89468,3.83809
14.90301,3.83713
14.91135,3.83646
14.91968,3.83563
14.92801,3.83485
14.93635,3.83386
14.94468,3.83305
14.95301,3.83235
14.96135,3.83144
14.96968,3.8305
14.97801,3.82981
14.98635,3.82897
14.99468,3.82816
15.00301,3.8273
15.01135,3.82647
15.01968,3.82565
15.02801,3.82493
15.03635,3.82401
15.04468,3.8233
15.05301,3.82237
15.06135,3.82159
15.06968,3.82083
15.07801,3.8199
15.08635,3.81909
15.09468,3.8184
15.10301,3.81752
15.11135,3.81676
15.11968,3.81602
15.12801,3.81517
15.13635,3.81441
15.14468,3.81354
15.15301,3.81272
15.16135,3.81192
15.16968,3.81111
15.17801,3.81042
15.18635,3.80953
15.19468,3.80873
15.20301,3.80797
15.21135,3.80716
15.21968,3.80644
15.22801,3.80563
15.23635,3.80486
15.24468,3.80393
15.25301,3.8032
15.26135,3.80249
15.26968,3.80163
15.27801,3.80092
15.28635,3.8001
15.29468,3.79933
15.30301,3.79853
15.31135,3.79781
15.31968,3.7971
15.32801,3.79631
15.33635,3.79552
15.34468,3.79475
15.35301,3.79406
15.36135,3.79317
15.36968,3.79234
15.37801,3.79163
15.38635,3.79101
15.39468,3.79021
15.40301,3.78952
15.41135,3.78874
15.41968,3.78803
15.42801,3.7873
15.43635,3.7865
15.44468,3.78577
15.45301,3.78501
15.46135,3.78424
15.46968,3.78361
15.47801,3.78284
15.48635,3.78208
15.49468,3.78136
15.50301,3.78068
15.51135,3.77984
15.51968,3.77926
15.52801,3.7785
15.53635,3.77777
15.54468,3.77701
15.55301,3.77625
15.56135,3.77568
15.56968,3.77493
15.57801,3.77409
15.58635,3.77343
15.59468,3.77265
15.60301,3.77197
15.61135,3.77131
15.61968,3.77063
15.62801,3.76978
15.63635,3.76907
15.64468,3.76843
15.65301,3.76777
15.66135,3.767
15.66968,3.7664
15.67801,3.76574
15.68635,3.76492
15.69468,3.76435
15.70301,3.76367
15.71135,3.76287
15.71968,3.76218
15.72801,3.76148
15.73635,3.7608
15.74468,3.76022
15.75301,3.75956
15.76135,3.75884
15.76968,3.75813
15.77801,3.75764
15.78635,3.75684
15.79468,3.75633
15.80301,3.75568
15.81135,3.75491
15.81968,3.75416
15.82801,3.75358
15.83635,3.75296
15.84468,3.75237
15.85301,3.75156
15.86135,3.75102
15.86968,3.75036
15.87801,3.74975
15.88635,3.74911
15.89468,3.74852
15.90301,3.74768
15.91135,3.74713
15.91968,3.74645
15.92801,3.7458
15.93635,3.74516
15.94468,3.74459
15.95301,3.74382
15.96135,3.74317
15.96968,3.74248
15.97801,3.74194
15.98635,3.74132
15.99468,3.74066
16.00301,3.74007
16.01135,3.73944
16.01968,3.73881
16.02801,3.73816
16.03635,3.73764
16.04468,3.73688
16.05301,3.7362
16.06135,3.73567
16.06968,3.73497
16.07801,3.73449
16.08635,3.73375
16.09468,3.73315
16.10301,3.73262
16.11135,3.73197
16.11968,3.73137
16.12801,3.73077
16.13635,3.73002
16.14468,3.72932
16.15301,3.72876
16.16135,3.7282
16.16968,3.72747
16.17801,3.72687
16.18635,3.72627
16.19468,3.72562
16.20301,3.72499
16.21135,3.72442
16.21968,3.72382
16.22801,3.72309
16.23635,3.72256
16.24468,3.7218
16.25301,3.72118
16.26135,3.72061
16.26968,3.71998
16.27801,3.71938
16.28635,3.71876
16.29468,3.71802
16.30301,3.71741
16.31135,3.71679
16.31968,3.71603
16.32801,3.71546
16.33635,3.7148
16.34468,3.71412
16.35301,3.71354
16.36135,3.7128
16.36968,3.71216
16.37801,3.71158
16.38635,3.71082
16.39468,3.71023
16.40301,3.70957
16.41135,3.70894
16.41968,3.70824
16.42801,3.70761
16.43635,3.70685
16.44468,3.70627
16.45301,3.70549
16.46135,3.70504
16.46968,3.70414
16.47801,3.70346
16.48635,3.70294
16.49468,3.70211
16.50301,3.70144
16.51135,3.70086
16.51968,3.70012
16.52801,3.69944
16.53635,3.69876
16.54468,3.69807
16.55301,3.69738
16.56135,3.69658
16.56968,3.69599
16.57801,3.69518
16.58635,3.69446
16.59468,3.69373
16.60301,3.69294
16.61135,3.69226
16.61968,3.69152
16.62801,3.69062
16.63635,3.69015
16.64468,3.68936
16.65301,3.68855
16.66135,3.68788
16.66968,3.68726
16.67801,3.68634
16.68635,3.6855
16.69468,3.68481
16.70301,3.684
16.71135,3.68327
16.71968,3.6825
16.72801,3.68185
16.73635,3.68097
16.74468,3.68027
16.75301,3.67939
16.76135,3.67873
16.76968,3.67789
16.77801,3.67712
16.78635,3.67627
16.79468,3.6754
16.80301,3.67453
16.81135,3.67377
16.81968,3.673
16.82801,3.67216
16.83635,3.6714
16.84468,3.67051
16.85301,3.66966
16.86135,3.6688
16.86968,3.66783
16.87801,3.66716
16.88635,3.66629
16.89468,3.66541
16.90301,3.66451
16.91135,3.66375
16.91968,3.66288
16.92801,3.66186
16.93635,3.66107
16.94468,3.66039
16.95301,3.65934
16.96135,3.65843
16.96968,3.65765
16.97801,3.65659
16.98635,3.65582
16.99468,3.65494
17.00301,3.65391
17.01135,3.65311
17.01968,3.65216
17.02801,3.65117
17.03635,3.65026
17.04468,3.64955
17.05301,3.64853
17.06135,3.64757
17.06968,3.64657
17.07801,3.64561
17.08635,3.64476
17.09468,3.64369
17.10301,3.6428
17.11135,3.64185
17.11968,3.64093
17.12801,3.6399
17.13635,3.63884
17.14468,3.63795
17.15301,3.63681
17.16135,3.63588
17.16968,3.63478
17.17801,3.6338
17.18635,3.63299
17.19468,3.63184
17.20301,3.63091
17.21135,3.62968
17.21968,3.6288
17.22801,3.62784
17.23635,3.62672
17.24468,3.62574
17.25301,3.62465
17.26135,3.62375
17.26968,3.62254
17.27801,3.62141
17.28635,3.62043
17.29468,3.61928
17.30301,3.61823
17.31135,3.61721
17.31968,3.61602
17.32801,3.61499
17.33635,3.6138
17.34468,3.61276
17.35301,3.61171
17.36135,3.61048
17.36968,3.60946
17.37801,3.60827
17.38635,3.60722
17.39468,3.60606
17.40301,3.60484
17.41135,3.6038
17.41968,3.60267
17.42801,3.60155
17.43635,3.60035
17.44468,3.59918
17.45301,3.59793
17.46135,3.59687
17.46968,3.5957
17.47801,3.59453
17.48635,3.59321
17.49468,3.59213
17.50301,3.59092
17.51135,3.58973
17.51968,3.58853
17.52801,3.58725
17.53635,3.58612
17.54468,3.58487
17.55301,3.58362
17.56135,3.58249
17.56968,3.58128
17.57801,3.58011
17.58635,3.57879
17.59468,3.57754
17.60301,3.57636
17.61135,3.57505
17.61968,3.57379
17.62801,3.57249
17.63635,3.57138
17.64468,3.57012
17.65301,3.56862
17.66135,3.56736
17.66968,3.56628
17.67801,3.56502
17.68635,3.56374
17.69468,3.56252
17.70301,3.56112
17.71135,3.55984
17.71968,3.55861
17.72801,3.5572
17.73635,3.55586
17.74468,3.5547
17.75301,3.55339
17.76135,3.55202
17.76968,3.55076
17.77801,3.5495
17.78635,3.548
17.79468,3.54681
17.80301,3.54541
17.81135,3.54417
17.81968,3.54294
17.82801,3.54151
17.83635,3.54017
17.84468,3.53878
17.85301,3.53757
17.86135,3.5362
17.86968,3.53474
17.87801,3.53349
17.88635,3.53212
17.89468,3.53075
17.90301,3.52936
17.91135,3.52796
17.91968,3.52667
17.92801,3.52526
17.93635,3.52392
17.94468,3.52251
17.95301,3.52119
17.96135,3.51982
17.96968,3.51838
17.97801,3.51706
17.98635,3.51576
17.99468,3.5145
18.00301,3.51298
18.01135,3.51158
18.01968,3.51013
18.02801,3.50888
18.03635,3.50741
18.04468,3.506
18.05301,3.50467
18.06135,3.50327
18.06968,3.50188
18.07801,3.50051
18.08635,3.49907
18.09468,3.49768
18.10301,3.49621
18.11135,3.49484
18.11968,3.49339
18.12801,3.49203
18.13635,3.49063
18.14468,3.4892
18.15301,3.48779
18.16135,3.48636
18.16968,3.48499
18.17801,3.4836
18.18635,3.48219
18.19468,3.48071
18.20301,3.47928
18.21135,3.47792
18.21968,3.47632
18.22801,3.47501
18.23635,3.47359
18.24468,3.47217
18.25301,3.47051
18.26135,3.46913
18.26968,3.46779
18.27801,3.4664
18.28635,3.46499
18.29468,3.46353
18.30301,3.46197
18.31135,3.46049
18.31968,3.45913
18.32801,3.45775
18.33635,3.45615
18.34468,3.45482
18.35301,3.45326
18.36135,3.4518
18.36968,3.45045
18.37801,3.44894
18.38635,3.44755
18.39468,3.44595
18.40301,3.44452
18.41135,3.44301
18.41968,3.4415
18.42801,3.44
18.43635,3.43858
18.44468,3.437
18.45301,3.43542
18.46135,3.43405
18.46968,3.43241
18.47801,3.43087
18.48635,3.42943
18.49468,3.42782
18.50301,3.4263
18.51135,3.42469
18.51968,3.42312
18.52801,3.4216
18.53635,3.42005
18.54468,3.4186
18.55302,3.41701
18.56135,3.41548
18.56968,3.41401
18.57802,3.41224
18.58635,3.41075
18.59468,3.40911
18.60302,3.40746
18.61135,3.40603
18.61968,3.40443
18.62802,3.4028
18.63635,3.40132
18.64468,3.39971
18.65302,3.39803
18.66135,3.39638
18.66968,3.39463
18.67802,3.39307
18.68635,3.39164
18.69468,3.38983
18.70302,3.38822
18.71135,3.38658
18.71968,3.3848
18.72802,3.38315
18.73635,3.38144
18.74468,3.37973
18.75302,3.37811
18.76135,3.37641
18.76968,3.37476
18.77802,3.37318
18.78635,3.37137
18.79468,3.36973
18.80302,3.36808
18.81135,3.36625
18.81968,3.3646
18.82802,3.36295
18.83635,3.36114
18.84468,3.35951
18.85302,3.35769
18.86135,3.35597
18.86968,3.35431
18.87802,3.35238
18.88635,3.35072
18.89468,3.34895
18.90302,3.34727
18.91135,3.34543
18.91968,3.34357
18.92802,3.34173
18.93635,3.33991
18.94468,3.33818
18.95302,3.33632
18.96135,3.33437
18.96968,3.33257
18.97802,3.33056
18.98635,3.32859
18.99468,3.32688
19.00302,3.32499
19.01135,3.3231
19.01968,3.32143
19.02802,3.31946
19.03635,3.31756
19.04468,3.31577
19.05302,3.31388
19.06135,3.31186
19.06969,3.30993
19.07802,3.3079
19.08635,3.30597
19.09469,3.30403
19.10302,3.30187
19.11135,3.29995
19.11969,3.29803
19.12802,3.29596
19.13635,3.29396
19.14469,3.29198
19.15302,3.28988
19.16135,3.28799
19.16969,3.28592
19.17802,3.28386
19.18635,3.28198
19.19469,3.27976
19.20302,3.278
19.21135,3.27591
19.21969,3.27368
19.22802,3.2716
19.23635,3.26944
19.24469,3.2672
19.25302,3.26507
19.26135,3.26299
19.26969,3.26079
19.27802,3.25876
19.28635,3.25654
19.29469,3.25454
19.30302,3.25232
19.31135,3.25017
19.31969,3.2481
19.32802,3.24603
19.33635,3.2438
19.34469,3.2416
19.35302,3.2394
19.36135,3.23742
19.36969,3.23524
19.37802,3.23296
19.38635,3.23079
19.39469,3.22865
19.40302,3.22636
19.41135,3.22404
19.41969,3.22185
19.42802,3.21945
19.43635,3.2172
19.44469,3.21481
19.45302,3.21241
19.46135,3.21002
19.46969,3.20778
19.47802,3.20546
19.48635,3.20308
19.49469,3.20081
19.50302,3.19867
19.51135,3.19639
19.51969,3.19422
19.52802,3.19213
19.53635,3.18991
19.54469,3.18771
19.55302,3.18559
19.56135,3.18318
19.56969,3.18112
19.57802,3.17894
19.58636,3.17661
19.59469,3.17422
19.60302,3.17184
19.61136,3.16945
19.61969,3.16706
19.62802,3.16467
19.63636,3.16238
19.64469,3.15997
19.65302,3.15762
19.66136,3.15538
19.66969,3.15307
19.67802,3.1508
19.68636,3.14848
19.69469,3.14624
19.70302,3.14398
19.71136,3.14153
19.71969,3.13934
19.72802,3.13694
19.73636,3.13454
19.74469,3.13226
19.75302,3.12989
19.76136,3.12795
19.76969,3.12558
19.77802,3.12324
19.78636,3.12085
19.79469,3.11856
19.80302,3.11619
19.81136,3.11384
19.81969,3.11148
19.82802,3.109
19.83636,3.1067
19.84469,3.1044
19.85302,3.10219
19.86136,3.09959
19.86969,3.09726
19.87802,3.095
19.88636,3.09249
19.89469,3.09007
19.90302,3.0876
19.91136,3.0851
19.91969,3.08278
19.92802,3.08018
19.93636,3.07764
19.94469,3.07515
19.95302,3.07253
19.96136,3.06996
19.96969,3.06726
19.97802,3.06464
19.98636,3.06186
19.99469,3.05903
20.00302,3.05651
20.01136,3.05377
20.01969,3.05132
20.02802,3.04866
20.03636,3.04581
20.04469,3.0431
20.05302,3.04046
20.06136,3.03766
20.06969,3.03472
20.07802,3.03177
20.08636,3.02892
20.09469,3.02581
20.10302,3.02281
20.11136,3.01959
20.11969,3.01653
20.12803,3.01317
20.13636,3.00993
20.14469,3.00665
20.15303,3.00323
20.16104,3.00006
20.16104,3.00004
20.16104,3.00529
20.16105,3.0153
20.16106,3.02531
20.16108,3.03546
20.1611,3.04547
20.16112,3.0555
20.16115,3.06553
20.16118,3.0756
20.16121,3.08563
20.16125,3.09569
20.16129,3.10576
20.16135,3.11579
20.16141,3.12583
20.16148,3.13585
20.16157,3.14589
20.16168,3.15592
20.16182,3.16595
20.16198,3.17595
20.16218,3.18596
20.16242,3.19597
20.1627,3.20598
20.16303,3.21598
20.16341,3.22599
20.16385,3.23603
20.16436,3.24606
20.16493,3.25609
20.16557,3.2661
20.16629,3.27612
20.1671,3.28614
20.16802,3.29614
20.16905,3.30614
20.1702,3.31616
20.1715,3.32618
20.17297,3.33619
20.17464,3.3462
20.17655,3.35621
20.17872,3.36622
20.18124,3.37622
20.18415,3.38622
20.18757,3.39627
20.19163,3.40628
20.1965,3.41629
20.20237,3.4263
20.20964,3.43631
20.21798,3.44541
20.22631,3.4529
20.23464,3.45931
20.24298,3.46467
20.25131,3.46945
20.25964,3.47334
20.26798,3.47693
20.27631,3.48029
20.28464,3.48305
20.29298,3.48582
20.30131,3.4882
20.30964,3.49045
20.31798,3.49253
20.32631,3.49452
20.33464,3.49639
20.34298,3.49811
20.35131,3.49987
20.35964,3.50144
20.36798,3.50305
20.37631,3.50462
20.38464,3.50601
20.39298,3.50745
20.40131,3.50913
20.40964,3.51061
20.41798,3.512
20.42631,3.51349
20.43464,3.51485
20.44298,3.51615
20.45131,3.51753
20.45964,3.51891
20.46798,3.52035
20.47631,3.52164
20.48464,3.52306
20.49298,3.52435
20.50131,3.52569
20.50964,3.527
20.51798,3.5284
20.52631,3.52958
20.53464,3.53103
20.54298,3.53221
20.55131,3.53363
20.55964,3.53499
20.56798,3.53644
20.57631,3.53776
20.58464,3.53928
20.59298,3.54065
20.60131,3.54202
20.60964,3.54346
20.61798,3.54485
20.62631,3.54635
20.63464,3.54777
20.64298,3.54936
20.65131,3.55074
20.65964,3.55219
20.66798,3.55371
20.67631,3.55521
20.68465,3.55667
20.69298,3.55831
20.70131,3.55989
20.70965,3.56154
20.71798,3.5629
20.72631,3.56456
20.73465,3.56619
20.74298,3.56764
20.75131,3.56933
20.75965,3.57079
20.76798,3.57237
20.77631,3.57387
20.78465,3.57549
20.79298,3.57702
20.80131,3.57863
20.80965,3.58034
20.81798,3.58202
20.82631,3.58348
20.83465,3.58512
20.84298,3.5866
20.85131,3.5885
20.85965,3.58998
20.86798,3.59156
20.87631,3.5932
20.88465,3.59487
20.89298,3.59654
20.90131,3.5982
20.90965,3.5997
20.91798,3.60151
20.92631,3.60302
20.93465,3.60464
20.94298,3.60621
20.95131,3.60788
20.95965,3.60965
20.96798,3.61121
20.97631,3.61276
20.98465,3.61447
20.99298,3.61619
21.00131,3.61776
21.00965,3.61946
21.01798,3.62101
21.02631,3.62261
21.03465,3.62418
21.04298,3.62565
21.05131,3.62732
21.05965,3.62895
21.06798,3.63061
21.07631,3.6321
21.08465,3.6336
21.09298,3.63515
21.10131,3.63687
21.10965,3.6384
21.11798,3.64002
21.12631,3.64149
21.13465,3.64314
21.14298,3.64461
21.15131,3.64613
21.15965,3.64759
21.16798,3.64914
21.17631,3.65047
21.18465,3.65216
21.19298,3.65355
21.20132,3.65497
21.20965,3.65648
21.21798,3.65784
21.22632,3.65912
21.23465,3.6607
21.24298,3.66209
21.25132,3.66352
21.25965,3.66491
21.26798,3.66627
21.27632,3.66759
21.28465,3.66896
21.29298,3.67042
21.30132,3.67173
21.30965,3.67297
21.31798,3.67429
21.32632,3.67547
21.33465,3.67683
21.34298,3.67819
21.35132,3.67957
21.35965,3.68069
21.36798,3.68199
21.37632,3.68328
21.38465,3.68442
21.39298,3.68566
21.40132,3.68668
21.40965,3.68806
21.41798,3.68921
21.42632,3.69024
21.43465,3.69157
21.44298,3.69271
21.45132,3.69364
21.45965,3.69478
21.46798,3.69597
21.47632,3.69708
21.48465,3.69803
21.49298,3.69923
21.50132,3.70031
21.50965,3.70129
21.51798,3.70236
21.52632,3.70328
21.53465,3.70448
21.54298,3.70553
21.55132,3.70637
21.55965,3.70742
21.56798,3.70831
21.57632,3.70934
21.58465,3.71035
21.59298,3.71133
21.60132,3.71232
21.60965,3.71329
21.61798,3.7141
21.62632,3.71519
21.63465,3.71593
21.64298,3.71686
21.65132,3.71775
21.65965,3.71874
21.66798,3.71959
21.67632,3.72044
21.68465,3.7214
21.69298,3.72219
21.70132,3.72303
21.70965,3.72387
21.71799,3.72475
21.72632,3.72551
21.73465,3.72642
21.74299,3.72721
21.75132,3.72799
21.75965,3.72896
21.76799,3.72962
21.77632,3.7304
21.78465,3.73121
21.79299,3.73193
21.80132,3.73281
21.80965,3.73357
21.81799,3.73425
21.82632,3.7351
21.83465,3.73589
21.84299,3.7366
21.85132,3.73736
21.85965,3.73806
21.86799,3.73882
21.87632,3.73953
21.88465,3.74032
21.89299,3.74106
21.90132,3.74172
21.90965,3.74244
21.91799,3.74312
21.92632,3.7439
21.93465,3.74468
21.94299,3.74526
21.95132,3.74608
21.95965,3.74673
21.96799,3.74744
21.97632,3.74812
21.98465,3.74879
21.99299,3.74953
22.00132,3.75022
22.00965,3.75089
22.01799,3.75155
22.02632,3.7522
22.03465,3.75282
22.04299,3.7535
22.05132,3.75407
22.05965,3.75486
22.06799,3.75539
22.07632,3.75613
22.08465,3.75665
22.09299,3.75734
22.10132,3.75799
22.10965,3.75872
22.11799,3.75939
22.12632,3.75993
22.13465,3.76062
22.14299,3.76123
22.15132,3.76189
22.15965,3.76251
22.16799,3.76303
22.17632,3.76383
22.18465,3.76446
22.19299,3.76503
22.20132,3.76575
22.20965,3.7663
22.21799,3.76693
22.22632,3.76753
22.23465,3.76814
22.24299,3.76883
22.25132,3.76935
22.25966,3.77004
22.26799,3.77055
22.27632,3.77123
22.28466,3.77172
22.29299,3.77249
22.30132,3.77311
22.30966,3.77374
22.31799,3.7744
22.32632,3.77505
22.33466,3.77558
22.34299,3.77622
22.35132,3.77684
22.35966,3.77748
22.36799,3.77817
22.37632,3.77871
22.38466,3.77937
22.39299,3.77994
22.40132,3.78057
22.40966,3.78127
22.41799,3.78182
22.42632,3.78249
22.43466,3.78316
22.44299,3.78375
22.45132,3.78442
22.45966,3.78492
22.46799,3.78556
22.47632,3.78619
22.48466,3.78696
22.49299,3.78757
22.50132,3.78816
22.50966,3.78878
22.51799,3.78947
22.52632,3.79007
22.53466,3.79061
22.54299,3.79137
22.55132,3.79198
22.55966,3.79258
22.56799,3.79321
22.57632,3.79383
22.58466,3.79448
22.59299,3.79515
22.60132,3.79572
22.60966,3.79641
22.61799,3.79695
22.62632,3.7977
22.63466,3.79827
22.64299,3.79903
22.65132,3.79972
22.65966,3.80043
22.66799,3.80096
22.67632,3.80163
22.68466,3.80228
22.69299,3.80292
22.70132,3.80364
22.70966,3.8043
22.71799,3.80499
22.72632,3.80573
22.73466,3.80631
22.74299,3.80692
22.75132,3.80766
22.75966,3.80831
22.76799,3.80901
22.77633,3.80976
22.78466,3.81032
22.79299,3.81102
22.80133,3.81179
22.80966,3.81231
22.81799,3.81304
22.82633,3.81384
22.83466,3.81445
22.84299,3.81515
22.85133,3.81588
22.85966,3.81667
22.86799,3.81723
22.87633,3.81794
22.88466,3.81873
22.89299,3.81942
22.90133,3.82012
22.90966,3.82083
22.91799,3.82155
22.92633,3.82238
22.93466,3.82301
22.94299,3.8235
22.95133,3.82432
22.95966,3.82509
22.96799,3.8258
22.97633,3.82641
22.98466,3.82717
22.99299,3.8279
23.00133,3.82858
23.00966,3.82935
23.01799,3.83006
23.02633,3.83082
23.03466,3.8315
23.04299,3.83228
23.05133,3.83293
23.05966,3.83385
23.06799,3.83444
23.07633,3.83511
23.08466,3.83601
23.09299,3.83657
23.10133,3.83752
23.10966,3.83816
23.11799,3.83899
23.12633,3.83957
23.13466,3.84053
23.14299,3.84119
23.15133,3.8418
23.15966,3.84257
23.16799,3.84346
23.17633,3.84422
23.18466,3.84493
23.19299,3.84572
23.20133,3.84652
23.20966,3.84727
23.21799,3.84803
23.22633,3.84877
23.23466,3.84956
23.24299,3.85037
23.25133,3.85117
23.25966,3.85198
23.26799,3.85268
23.27633,3.85343
23.28466,3.85419
23.293,3.85494
23.30133,3.85563
23.30966,3.85642
23.318,3.85721
23.32633,3.85801
23.33466,3.85869
23.343,3.85954
23.35133,3.8603
23.35966,3.86116
23.368,3.86182
23.37633,3.86264
23.38466,3.86352
23.393,3.86429
23.40133,3.86501
23.40966,3.86591
23.418,3.86657
23.42633,3.8674
23.43466,3.86811
23.443,3.8689
23.45133,3.8698
23.45966,3.87056
23.468,3.87134
23.47633,3.87213
23.48466,3.87291
23.493,3.8737
23.50133,3.87451
23.50966,3.87529
23.518,3.87609
23.52633,3.87686
23.53466,3.87755
23.543,3.87842
23.55133,3.87927
23.55966,3.88003
23.568,3.88092
23.57633,3.88158
23.58466,3.88253
23.593,3.88327
23.60133,3.88393
23.60966,3.88476
23.618,3.88563
23.62633,3.88644
23.63466,3.88724
23.643,3.88797
23.65133,3.88882
23.65966,3.88949
23.668,3.89037
23.67633,3.89117
23.68466,3.892
23.693,3.89281
23.70133,3.89352
23.70966,3.89423
23.718,3.89516
23.72633,3.89587
23.73466,3.89677
23.743,3.89759
23.75133,3.89845
23.75966,3.89907
23.768,3.89999
23.77633,3.90076
23.78466,3.90152
23.793,3.90231
23.80133,3.90308
23.80967,3.90403
23.818,3.90483
23.82633,3.90559
23.83467,3.90633
23.843,3.90718
23.85133,3.90798
23.85967,3.90882
23.868,3.90956
23.87633,3.91042
23.88467,3.91117
23.893,3.91196
23.90133,3.91276
23.90967,3.91368
23.918,3.9144
23.92633,3.91517
23.93467,3.91607
23.943,3.91699
23.95133,3.91759
23.95967,3.91849
23.968,3.91937
23.97633,3.92002
23.98467,3.92093
23.993,3.92173
24.00133,3.92244
24.00967,3.92321
24.018,3.92424
24.02633,3.92508
24.03467,3.92574
24.043,3.9265
24.05133,3.92734
24.05967,3.9282
24.068,3.92902
24.07633,3.92981
24.08467,3.93068
24.093,3.93157
24.10133,3.93234
24.10967,3.93324
24.118,3.93398
24.12633,3.93485
24.13467,3.93567
24.143,3.93636
24.15133,3.93733
24.15967,3.93808
24.168,3.93898
24.17633,3.9397
24.18467,3.94046
24.193,3.94141
24.20133,3.9423
24.20967,3.94301
24.218,3.94389
24.22633,3.94471
24.23467,3.94558
24.243,3.94648
24.25133,3.94728
24.25967,3.94816
24.268,3.94887
24.27633,3.94983
24.28467,3.95064
24.293,3.95142
24.30133,3.95231
24.30967,3.95305
24.318,3.95398
24.32634,3.95496
24.33467,3.95563
24.343,3.95661
24.35134,3.95735
24.35967,3.95823
24.368,3.95909
24.37634,3.96004
24.38467,3.96064
24.393,3.9616
24.40134,3.96261
24.40967,3.96339
24.418,3.96433
24.42634,3.96502
24.43467,3.966
24.443,3.9669
24.45134,3.96779
24.45967,3.96863
24.468,3.96947
24.47634,3.97033
24.48467,3.9712
24.493,3.97208
24.50134,3.97295
24.50967,3.97385
24.518,3.97467
24.52634,3.97555
24.53467,3.97641
24.543,3.97728
24.55134,3.97814
24.55967,3.97902
24.568,3.98003
24.57634,3.98091
24.58467,3.98176
24.593,3.98276
24.60134,3.98353
24.60967,3.98445
24.618,3.9853
24.62634,3.98628
24.63467,3.98705
24.643,3.98807
24.65134,3.98888
24.65967,3.98976
24.668,3.99068
24.67634,3.99163
24.68467,3.99256
24.693,3.99349
24.70134,3.99434
24.70967,3.99529
24.718,3.99617
24.72634,3.99719
24.73467,3.99814
24.743,3.99907
24.75134,3.9998
24.75967,4.00079
24.768,4.00166
24.77634,4.00263
24.78467,4.00355
24.793,4.0044
24.80134,4.00543
24.80967,4.00632
24.818,4.00728
24.82634,4.00826
24.83467,4.00912
24.84301,4.0101
24.85134,4.01099
24.85967,4.01193
24.86801,4.01295
24.87634,4.01379
24.88467,4.01487
24.89301,4.0158
24.90134,4.01678
24.90967,4.01766
24.91801,4.01874
24.92634,4.01948
24.93467,4.02071
24.94301,4.02153
24.95134,4.02247
24.95967,4.02347
24.96801,4.02432
24.97634,4.02534
24.98467,4.02644
24.99301,4.02733
25.00134,4.02834
25.00967,4.02922
25.01801,4.03031
25.02634,4.03128
25.03467,4.03221
25.04301,4.03325
25.05134,4.03421
25.05967,4.03515
25.06801,4.03604
25.07634,4.03716
25.08467,4.03803
25.09301,4.03905
25.10134,4.04012
25.10967,4.04097
25.11801,4.04202
25.12634,4.04303
25.13467,4.04401
25.14301,4.04524
25.15134,4.0462
25.15967,4.04702
25.16801,4.04807
25.17634,4.04913
25.18467,4.05024
25.19301,4.05125
25.20134,4.0522
25.20967,4.05326
25.21801,4.0544
25.22634,4.05525
25.23467,4.05618
25.24301,4.05738
25.25134,4.05831
25.25967,4.0595
25.26801,4.0604
25.27634,4.06152
25.28467,4.06247
25.29301,4.06351
25.30134,4.06449
25.30967,4.06567
25.31801,4.06664
25.32634,4.06774
25.33467,4.06878
25.34301,4.06972
25.35134,4.07091
25.35968,4.07197
25.36801,4.07304
25.37634,4.07398
25.38468,4.07514
25.39301,4.07619
25.40134,4.07727
25.40968,4.07852
25.41801,4.07942
25.42634,4.08056
25.43468,4.08161
25.44301,4.08271
25.45134,4.08379
25.45968,4.08486
25.46801,4.08589
25.47634,4.08708
25.48468,4.08809
25.49301,4.08927
25.50134,4.09034
25.50968,4.09139
25.51801,4.09252
25.52634,4.09357
25.53468,4.09483
25.54301,4.0959
25.55134,4.09699
25.55968,4.09802
25.56801,4.09919
25.57634,4.10047
25.58468,4.10147
25.59301,4.10256
25.60134,4.10369
25.60968,4.10477
25.61801,4.10587
25.62634,4.10702
25.63468,4.10814
25.64301,4.10921
25.65134,4.11046
25.65968,4.11156
25.66801,4.11274
25.67634,4.11383
25.68468,4.11497
25.69301,4.1162
25.70134,4.11733
25.70968,4.11864
25.71801,4.11963
25.72634,4.12071
25.73468,4.1219
25.74301,4.12317
25.75134,4.12432
25.75968,4.12547
25.76801,4.12658
25.77634,4.12786
25.78468,4.12901
25.79301,4.13022
25.80134,4.13133
25.80968,4.13251
25.81801,4.13357
25.82634,4.13485
25.83468,4.13611
25.84301,4.1372
25.85134,4.13846
25.85968,4.13966
25.86801,4.14088
25.87635,4.14208
25.88468,4.14331
25.89301,4.14444
25.90135,4.14569
25.90968,4.14703
25.91801,4.14808
25.92635,4.14929
25.93468,4.15046
25.94301,4.1517
25.95135,4.15289
25.95968,4.15415
25.96801,4.15549
25.97635,4.15673
25.98468,4.15791
25.99301,4.15907
26.00135,4.16023
26.00968,4.16141
26.01801,4.16287
26.02635,4.16407
26.03468,4.1652
26.04301,4.16632
26.05135,4.16766
26.05968,4.16892
26.06801,4.1701
26.07635,4.17148
26.08468,4.17252
26.09301,4.17383
26.10135,4.17503
26.10968,4.17631
26.11801,4.17769
26.12635,4.17886
26.13468,4.18013
26.14301,4.18133
26.15135,4.1826
26.15968,4.18382
26.16801,4.18512
26.17635,4.18646
26.18468,4.18763
26.19301,4.18886
26.20135,4.19009
26.20968,4.19139
26.21801,4.19266
26.22635,4.19398
26.23468,4.1953
26.24301,4.19653
26.25135,4.19788
26.25968,4.19905
26.26801,4.20036
26.27635,4.20167
26.28468,4.20292
26.29301,4.2042
26.30135,4.20558
26.30968,4.20686
26.31801,4.20821
26.32635,4.20935
26.33468,4.21064
26.34301,4.21195
26.35135,4.2132
26.35968,4.21453
26.36801,4.21584
26.37635,4.21712
26.38468,4.21837
26.39302,4.21963
26.40135,4.22099
26.40968,4.22243
26.41802,4.22357
26.42635,4.22491
26.43468,4.22605
26.44302,4.22742
26.45135,4.22882
26.45968,4.22993
26.46802,4.23133
26.47635,4.23256
26.48468,4.2339
26.49302,4.23528
26.50135,4.23643
26.50968,4.2378
26.51802,4.23897
26.52635,4.2404
26.53468,4.24157
26.54302,4.24291
26.55135,4.24421
26.55968,4.24551
26.56802,4.2466
26.57635,4.24818
26.58468,4.24926
26.59302,4.25062
26.60135,4.25194
26.60968,4.25327
26.61802,4.25456
26.62635,4.2558
26.63468,4.25729
26.64302,4.25843
26.65135,4.2597
26.65968,4.26105
26.66802,4.26236
26.67635,4.26373
26.68468,4.26499
26.69302,4.26616
26.70135,4.26748
26.70968,4.2689
26.71802,4.27013
26.72635,4.27141
26.73468,4.27274
26.74302,4.274
26.75135,4.27534
26.75968,4.27665
26.76802,4.27798
26.77635,4.27937
26.78468,4.28053
26.79302,4.28178
26.80135,4.28312
26.80968,4.28435
26.81802,4.28567
26.82635,4.28702
26.83468,4.28833
26.84302,4.28956
26.85135,4.29095
26.85968,4.29219
26.86802,4.29343
26.87635,4.29467
26.88468,4.29595
26.89302,4.29728
26.90135,4.29865
26.90969,4.29978
26.91802,4.30124
26.92635,4.30252
26.93469,4.30371
26.94302,4.30501
26.95135,4.3063
26.95969,4.30767
26.96802,4.30899
26.97635,4.31025
26.98469,4.31149
26.99302,4.3128
27.00135,4.31412
27.00969,4.31555
27.01802,4.31669
27.02635,4.31799
27.03469,4.31922
27.04302,4.32055
27.05135,4.32183
27.05969,4.32313
27.06802,4.32447
27.07635,4.3257
27.08469,4.32698
27.09302,4.32827
27.10135,4.32957
27.10969,4.33094
27.11802,4.33216
27.12635,4.3335
27.13469,4.33471
27.14302,4.33603
27.15135,4.33727
27.15969,4.33863
27.16802,4.33999
27.17635,4.3412
27.18469,4.3425
27.19302,4.34378
27.20135,4.34505
27.20969,4.34631
27.21802,4.34785
27.22635,4.349
27.23469,4.35037
27.24302,4.35167
27.25135,4.35303
27.25969,4.35421
27.26802,4.3555
27.27635,4.3569
27.28469,4.3582
27.29302,4.35952
27.30135,4.36069
27.30969,4.36212
27.31802,4.3634
27.32635,4.36465
27.33469,4.36579
27.34302,4.3672
27.35135,4.3684
27.35969,4.36967
27.36802,4.37111
27.37635,4.3723
27.38469,4.37351
27.39302,4.3748
27.40135,4.37634
27.40969,4.37743
27.41802,4.37881
27.42636,4.38012
27.43469,4.38139
27.44302,4.38263
27.45136,4.38389
27.45969,4.38508
27.46802,4.38636
27.47636,4.38793
27.48469,4.38906
27.49302,4.39038
27.50136,4.39171
27.50969,4.39298
27.51802,4.39429
27.52636,4.39558
27.53469,4.39681
27.54302,4.39817
27.55136,4.39941
27.55969,4.40075
27.56802,4.40206
27.57636,4.40335
27.58469,4.40473
27.59302,4.40583
27.60136,4.40725
27.60969,4.40845
27.61802,4.40967
27.62636,4.41108
27.63469,4.41233
27.64302,4.41374
27.65136,4.41503
27.65969,4.41629
27.66802,4.41759
27.67636,4.41887
27.68469,4.42018
27.69302,4.42151
27.70136,4.42284
27.70969,4.42417
27.71802,4.42547
27.72636,4.42686
27.73469,4.42819
27.74302,4.42952
27.75136,4.43083
27.75969,4.43225
27.76802,4.43351
27.77636,4.43482
27.78469,4.43621
27.79302,4.43755
27.80136,4.43878
27.80969,4.44012
27.81802,4.44139
27.82636,4.44278
27.83469,4.44409
27.84302,4.4455
27.85136,4.4468
27.85969,4.44814
27.86802,4.44957
27.87636,4.45092
27.88469,4.45237
27.89302,4.45368
27.90136,4.45506
27.90969,4.45644
27.91802,4.45763
27.92636,4.45912
27.93469,4.46036
27.94303,4.46176
27.95136,4.4632
27.95969,4.46449
27.96803,4.46579
27.97636,4.46726
27.98469,4.46862
27.99303,4.47006
28.00136,4.4714
28.00969,4.47277
28.01803,4.47408
28.02636,4.47561
28.03469,4.47711
28.04303,4.47856
28.05136,4.47995
28.05969,4.48124
28.06803,4.48271
28.07636,4.48395
28.08469,4.4855
28.09303,4.48683
28.10136,4.4882
28.10969,4.48961
28.11803,4.49101
28.12636,4.49252
28.13469,4.49374
28.14303,4.49522
28.15136,4.49664
28.15969,4.49813
28.16335,4.49871
